Domain Length	Pressure	Density	Velocity	Temperature	Sound Speed
0	1	1	0.75	0.00348432	1.18322
0.01	1	1	0.75	0.00348432	1.18322
0.02	1	1	0.75	0.00348432	1.18322
0.03	1	1	0.75	0.00348432	1.18322
0.04	1	1	0.75	0.00348432	1.18322
0.05	1	1	0.75	0.00348432	1.18322
0.06	0.999999	1	0.750001	0.00348432	1.18322
0.07	0.999998	0.999998	0.750002	0.00348432	1.18322
0.08	0.999993	0.999995	0.750006	0.00348431	1.18321
0.09	0.999979	0.999985	0.750018	0.0034843	1.18321
0.1	0.999942	0.999959	0.750049	0.00348426	1.18321
0.11	0.999848	0.999891	0.750128	0.00348417	1.18319
0.12	0.999626	0.999733	0.750316	0.00348395	1.18315
0.13	0.99914	0.999385	0.750727	0.00348346	1.18307
0.14	0.998149	0.998677	0.751566	0.00348248	1.1829
0.15	0.99628	0.997341	0.753149	0.00348061	1.18259
0.16	0.99302	0.995007	0.755916	0.00347736	1.18203
0.17	0.987756	0.991233	0.760401	0.0034721	1.18114
0.18	0.97987	0.985567	0.767157	0.00346418	1.17979
0.19	0.968859	0.977631	0.776669	0.00345306	1.1779
0.2	0.954441	0.967197	0.789264	0.00343837	1.17539
0.21	0.936608	0.954226	0.805069	0.00341999	1.17224
0.22	0.915619	0.938866	0.824005	0.00339804	1.16848
0.23	0.891945	0.92142	0.845815	0.00337286	1.16414
0.24	0.866215	0.902308	0.870089	0.00334495	1.15931
0.25	0.839194	0.882065	0.896259	0.00331497	1.1541
0.26	0.811837	0.861386	0.923504	0.00328389	1.14868
0.27	0.785503	0.841301	0.950487	0.00325323	1.14331
0.28	0.762419	0.823544	0.974789	0.00322571	1.13846
0.29	0.746126	0.810855	0.992302	0.00320618	1.13501
0.3	0.547433	0.65051	1.23806	0.00293221	1.08543
0.31	0.544436	0.647954	1.24231	0.00292766	1.08459
0.32	0.536327	0.641031	1.25392	0.00291521	1.08228
0.33	0.524451	0.630836	1.2712	0.00289672	1.07884
0.34	0.511237	0.619413	1.29082	0.00287581	1.07494
0.35	0.498542	0.608358	1.31009	0.00285536	1.07111
0.36	0.487513	0.598684	1.32717	0.00283731	1.06772
0.37	0.478767	0.590966	1.34095	0.0028228	1.06499
0.38	0.472494	0.585399	1.35097	0.0028123	1.06301
0.39	0.468508	0.581842	1.3574	0.00280563	1.06174
0.4	0.46634	0.579889	1.36092	0.00280205	1.06107
0.41	0.465401	0.579017	1.36244	0.00280062	1.0608
0.42	0.465153	0.57874	1.36285	0.00280046	1.06077
0.43	0.465216	0.578697	1.36274	0.00280105	1.06088
0.44	0.465375	0.578651	1.36248	0.00280224	1.0611
0.45	0.465538	0.578428	1.36222	0.0028043	1.06149
0.46	0.465674	0.577842	1.362	0.00280796	1.06219
0.47	0.465781	0.576639	1.36182	0.00281447	1.06342
0.48	0.465865	0.574455	1.36168	0.00282568	1.06553
0.49	0.465932	0.570813	1.36157	0.00284412	1.069
0.5	0.465986	0.565155	1.36148	0.00287292	1.0744
0.51	0.46603	0.556921	1.36141	0.00291567	1.08237
0.52	0.466067	0.545657	1.36135	0.00297609	1.09352
0.53	0.466097	0.531146	1.36129	0.0030576	1.1084
0.54	0.466122	0.513513	1.36125	0.00316276	1.1273
0.55	0.466143	0.493279	1.36121	0.00329264	1.15021
0.56	0.46616	0.471327	1.36117	0.00344612	1.17671
0.57	0.466174	0.448793	1.36114	0.00361927	1.20591
0.58	0.466185	0.426888	1.36111	0.00380507	1.23648
0.59	0.466194	0.406717	1.36108	0.00399385	1.26678
0.6	0.466201	0.389114	1.36106	0.00417459	1.29513
0.61	0.466205	0.374555	1.36103	0.0043369	1.32006
0.62	0.466207	0.363145	1.361	0.00447319	1.34064
0.63	0.466204	0.354677	1.36097	0.00457996	1.35655
0.64	0.466192	0.348729	1.36092	0.00465795	1.36805
0.65	0.466156	0.344776	1.36082	0.00471098	1.37582
0.66	0.466052	0.342272	1.36058	0.00474439	1.38069
0.67	0.465756	0.340692	1.35994	0.00476337	1.38345
0.68	0.464904	0.33948	1.35811	0.00477164	1.38465
0.69	0.46246	0.337832	1.35288	0.0047697	1.38436
0.7	0.455521	0.334057	1.33792	0.00475123	1.38168
0.71	0.436507	0.324059	1.29588	0.00469337	1.37324
0.72	0.389122	0.299008	1.18366	0.00453441	1.34979
0.73	0.295442	0.248135	0.92163	0.00414861	1.29109
0.74	0.18105	0.181725	0.482327	0.00347138	1.18102
0.75	0.117103	0.138955	0.122654	0.00293638	1.0862
0.76	0.102297	0.127023	0.0172675	0.00280607	1.06183
0.77	0.100273	0.125243	0.00206149	0.00278963	1.05871
0.78	0.100032	0.125028	0.000240241	0.00278771	1.05835
0.79	0.100004	0.125003	2.78625e-05	0.00278749	1.05831
0.8	0.1	0.125	3.22171e-06	0.00278746	1.0583
0.81	0.1	0.125	3.71259e-07	0.00278746	1.0583
0.82	0.1	0.125	4.2604e-08	0.00278746	1.0583
0.83	0.1	0.125	4.86374e-09	0.00278746	1.0583
0.84	0.1	0.125	5.51699e-10	0.00278746	1.0583
0.85	0.1	0.125	6.20877e-11	0.00278746	1.0583
0.86	0.1	0.125	6.92018e-12	0.00278746	1.0583
0.87	0.1	0.125	7.62398e-13	0.00278746	1.0583
0.88	0.1	0.125	8.28901e-14	0.00278746	1.0583
0.89	0.1	0.125	8.87002e-15	0.00278746	1.0583
0.9	0.1	0.125	8.76558e-16	0.00278746	1.0583
0.91	0.1	0.125	3.33726e-17	0.00278746	1.0583
0.92	0.1	0.125	8.98787e-19	0.00278746	1.0583
0.93	0.1	0.125	2.71147e-20	0.00278746	1.0583
0.94	0.1	0.125	4.51936e-22	0.00278746	1.0583
0.95	0.1	0.125	7.52168e-24	0.00278746	1.0583
0.96	0.1	0.125	1.24703e-25	0.00278746	1.0583
0.97	0.1	0.125	2.04012e-27	0.00278746	1.0583
0.98	0.1	0.125	3.29379e-29	0.00278746	1.0583
