Domain Length	Pressure	Density	Velocity	Temperature	Sound Speed
0	1000	1	-19.5974	3.48432	37.4166
0.01	995.357	0.996678	-19.4732	3.4797	37.3918
0.02	990.19	0.99298	-19.3342	3.47453	37.364
0.03	986.128	0.990065	-19.2245	3.47047	37.3421
0.04	980.997	0.986378	-19.0855	3.46531	37.3144
0.05	974.709	0.981851	-18.9142	3.45898	37.2802
0.06	967.227	0.976452	-18.7093	3.4514	37.2394
0.07	958.553	0.970177	-18.4699	3.44258	37.1918
0.08	948.728	0.963047	-18.1966	3.43252	37.1374
0.09	937.826	0.955109	-17.8904	3.42127	37.0765
0.1	925.941	0.946423	-17.5532	3.40891	37.0095
0.11	913.184	0.937064	-17.1871	3.39553	36.9368
0.12	899.673	0.927107	-16.7945	3.38122	36.8588
0.13	885.525	0.916634	-16.378	3.36607	36.7762
0.14	870.853	0.90572	-15.94	3.35019	36.6893
0.15	855.764	0.894439	-15.483	3.33366	36.5987
0.16	840.356	0.88286	-15.0091	3.31657	36.5048
0.17	824.717	0.871044	-14.5204	3.29901	36.408
0.18	808.927	0.859046	-14.0188	3.28104	36.3087
0.19	793.055	0.846917	-13.5062	3.26272	36.2072
0.2	777.161	0.834701	-12.9839	3.24413	36.1039
0.21	761.301	0.822438	-12.4535	3.22531	35.999
0.22	745.52	0.810163	-11.9163	3.2063	35.8928
0.23	729.859	0.797907	-11.3735	3.18717	35.7855
0.24	714.355	0.785698	-10.8261	3.16793	35.6774
0.25	699.039	0.773563	-10.2753	3.14865	35.5686
0.26	683.939	0.761523	-9.72206	3.12934	35.4594
0.27	669.081	0.749601	-9.16732	3.11004	35.3499
0.28	654.489	0.737818	-8.61207	3.0908	35.2404
0.29	640.183	0.726193	-8.05732	3.07164	35.131
0.3	626.184	0.714745	-7.50409	3.05259	35.0219
0.31	612.514	0.703494	-6.95347	3.03371	34.9134
0.32	599.191	0.692461	-6.40662	3.01501	34.8056
0.33	586.239	0.681666	-5.86483	2.99655	34.6989
0.34	573.678	0.671132	-5.3295	2.97837	34.5935
0.35	561.533	0.660884	-4.80222	2.96052	34.4897
0.36	549.83	0.650949	-4.28478	2.94306	34.3878
0.37	538.599	0.641358	-3.77919	2.92606	34.2884
0.38	527.872	0.632142	-3.28772	2.90959	34.1917
0.39	517.684	0.623341	-2.81295	2.89372	34.0983
0.4	508.075	0.614994	-2.35773	2.87856	34.0089
0.41	499.089	0.607147	-1.92523	2.86419	33.9239
0.42	490.77	0.599846	-1.51884	2.85073	33.8441
0.43	483.166	0.593139	-1.1421	2.8383	33.7702
0.44	476.321	0.587074	-0.79858	2.82699	33.7029
0.45	470.275	0.581694	-0.491595	2.81692	33.6428
0.46	465.058	0.577032	-0.223944	2.80818	33.5906
0.47	460.684	0.573108	0.00243442	2.80082	33.5465
0.48	457.155	0.569927	0.186465	2.79487	33.5109
0.49	454.466	0.567493	0.327487	2.79036	33.4838
0.5	452.531	0.56573	0.429433	2.78713	33.4644
0.51	451.241	0.564547	0.497537	2.78501	33.4517
0.52	450.487	0.56385	0.537372	2.78379	33.4444
0.53	450.161	0.563547	0.554597	2.78327	33.4413
0.54	450.158	0.563552	0.554654	2.78323	33.441
0.55	450.385	0.563794	0.542473	2.78344	33.4423
0.56	450.764	0.564219	0.522262	2.78368	33.4437
0.57	451.232	0.5648	0.497383	2.7837	33.4439
0.58	451.74	0.565537	0.470361	2.7832	33.4409
0.59	452.256	0.566467	0.442962	2.78181	33.4325
0.6	452.758	0.567667	0.416335	2.77901	33.4157
0.61	453.233	0.569273	0.391152	2.77408	33.386
0.62	453.676	0.571492	0.367747	2.76601	33.3374
0.63	454.083	0.574623	0.34623	2.75341	33.2614
0.64	454.457	0.579089	0.326571	2.73442	33.1465
0.65	454.799	0.585469	0.308662	2.70666	32.9778
0.66	455.113	0.594543	0.292354	2.66719	32.7365
0.67	455.403	0.607341	0.277488	2.61265	32.4001
0.68	455.673	0.625205	0.263904	2.5395	31.9433
0.69	455.926	0.649868	0.251455	2.44448	31.34
0.7	456.167	0.683556	0.240013	2.32524	30.566
0.71	456.4	0.729114	0.229471	2.18106	29.6032
0.72	456.63	0.790183	0.219745	2.01352	28.4435
0.73	456.861	0.871402	0.210777	1.82677	27.0924
0.74	457.099	0.978646	0.202534	1.62743	25.5715
0.75	457.348	1.11924	0.195005	1.42377	23.918
0.76	457.615	1.30206	0.188196	1.22458	22.1819
0.77	457.909	1.53728	0.182126	1.03787	20.421
0.78	458.237	1.8355	0.176796	0.869869	18.6953
0.79	458.606	2.20576	0.172091	0.724434	17.061
0.8	458.988	2.65195	0.167096	0.60305	15.5662
0.81	459.078	3.16677	0.155026	0.505112	14.2462
0.82	456.352	3.71521	0.0861079	0.427991	13.1136
0.83	433.525	4.14086	-0.366656	0.364789	12.1067
0.84	356.969	4.05054	-1.91317	0.307069	11.1077
0.85	232.96	3.33311	-5.01155	0.243528	9.8919
0.86	111.666	2.37707	-9.59376	0.163681	8.1097
0.87	34.228	1.60492	-14.7154	0.0743096	5.46421
0.88	4.57287	1.17292	-18.384	0.0135844	2.33628
0.89	0.177912	1.02771	-19.4846	0.000603189	0.492302
0.9	0.0109043	1.00182	-19.5947	3.79248e-05	0.123443
0.91	0.0100015	1.00003	-19.5974	3.48472e-05	0.118328
0.92	0.01	1	-19.5974	3.48432e-05	0.118322
0.93	0.01	1	-19.5974	3.48432e-05	0.118322
0.94	0.01	1	-19.5974	3.48432e-05	0.118322
0.95	0.01	1	-19.5974	3.48432e-05	0.118322
0.96	0.01	1	-19.5974	3.48432e-05	0.118322
0.97	0.01	1	-19.5974	3.48432e-05	0.118322
0.98	0.01	1	-19.5974	3.48432e-05	0.118322
