Domain Length	Pressure	Density	Velocity	Temperature	Sound Speed
0	1000	1	-19.5974	3.48432	37.4166
0.01	998.166	0.998689	-19.5484	3.48249	37.4068
0.02	996.063	0.997186	-19.4921	3.4804	37.3955
0.03	993.537	0.995378	-19.4243	3.47788	37.382
0.04	989.932	0.992794	-19.3272	3.47427	37.3626
0.05	985.053	0.989294	-19.1955	3.46938	37.3363
0.06	978.762	0.984772	-19.0247	3.46306	37.3022
0.07	970.991	0.979173	-18.8125	3.45521	37.2599
0.08	961.746	0.972493	-18.5582	3.44582	37.2093
0.09	951.098	0.964776	-18.2626	3.43492	37.1504
0.1	939.167	0.956097	-17.9281	3.42262	37.0838
0.11	926.105	0.946558	-17.5577	3.40903	37.0101
0.12	912.078	0.936269	-17.155	3.3943	36.93
0.13	897.255	0.925345	-16.7235	3.37855	36.8443
0.14	881.795	0.913894	-16.267	3.36194	36.7536
0.15	865.843	0.902018	-15.7887	3.34458	36.6586
0.16	849.531	0.889806	-15.2917	3.32661	36.56
0.17	832.972	0.87734	-14.7788	3.30812	36.4582
0.18	816.264	0.864688	-14.2524	3.28919	36.3538
0.19	799.49	0.85191	-13.7145	3.26992	36.2471
0.2	782.721	0.839058	-13.167	3.25037	36.1386
0.21	766.017	0.826175	-12.6115	3.23061	36.0286
0.22	749.428	0.813301	-12.0495	3.21068	35.9173
0.23	732.996	0.800467	-11.4822	3.19063	35.805
0.24	716.758	0.787703	-10.9108	3.17051	35.6919
0.25	700.746	0.775033	-10.3363	3.15035	35.5782
0.26	684.986	0.762482	-9.75975	3.13018	35.4642
0.27	669.502	0.75007	-9.18215	3.11006	35.35
0.28	654.318	0.737817	-8.60445	3.09	35.2358
0.29	639.453	0.725742	-8.02764	3.07004	35.1218
0.3	624.927	0.713864	-7.45277	3.05023	35.0083
0.31	610.761	0.702204	-6.88096	3.03058	34.8954
0.32	596.974	0.690781	-6.31343	3.01116	34.7834
0.33	583.589	0.679619	-5.75156	2.99199	34.6725
0.34	570.63	0.668741	-5.1969	2.97313	34.5631
0.35	558.122	0.658176	-4.65122	2.95465	34.4554
0.36	546.097	0.647954	-4.11656	2.93659	34.35
0.37	534.588	0.638109	-3.59527	2.91905	34.2473
0.38	523.633	0.628683	-3.09003	2.90211	34.1477
0.39	513.275	0.619718	-2.60393	2.88585	34.0519
0.4	503.564	0.611266	-2.14039	2.8704	33.9607
0.41	494.55	0.603378	-1.70324	2.85587	33.8746
0.42	486.29	0.596112	-1.29651	2.8424	33.7946
0.43	478.836	0.589524	-0.924372	2.83011	33.7215
0.44	472.239	0.583666	-0.590806	2.81913	33.656
0.45	466.538	0.578581	-0.299278	2.80958	33.5989
0.46	461.754	0.574296	-0.0522707	2.80152	33.5507
0.47	457.898	0.570826	0.148446	2.79501	33.5117
0.48	454.954	0.568163	0.302661	2.79005	33.482
0.49	452.838	0.566236	0.414001	2.78653	33.4608
0.5	451.427	0.564937	0.488506	2.78423	33.447
0.51	450.594	0.564156	0.532551	2.78294	33.4393
0.52	450.216	0.563786	0.552489	2.78243	33.4362
0.53	450.18	0.563728	0.554312	2.7825	33.4366
0.54	450.385	0.563898	0.543343	2.78293	33.4392
0.55	450.747	0.564228	0.52403	2.78353	33.4428
0.56	451.202	0.564676	0.499859	2.78413	33.4464
0.57	451.7	0.565221	0.473396	2.78452	33.4487
0.58	452.208	0.565869	0.446402	2.78446	33.4484
0.59	452.706	0.566659	0.420002	2.78364	33.4435
0.6	453.181	0.567667	0.394849	2.78161	33.4313
0.61	453.626	0.569021	0.371272	2.77772	33.4079
0.62	454.04	0.570912	0.349394	2.77104	33.3677
0.63	454.423	0.573623	0.329211	2.76027	33.3028
0.64	454.776	0.577552	0.310652	2.74362	33.2022
0.65	455.101	0.583251	0.293607	2.71876	33.0514
0.66	455.402	0.59147	0.277956	2.68275	32.8318
0.67	455.682	0.603206	0.263574	2.63218	32.5209
0.68	455.944	0.619772	0.250343	2.56329	32.0925
0.69	456.191	0.642883	0.238155	2.47248	31.5189
0.7	456.426	0.674766	0.226914	2.35687	30.7732
0.71	456.654	0.718308	0.216539	2.21511	29.8334
0.72	456.879	0.777253	0.206964	2.04813	28.6869
0.73	457.104	0.856451	0.198142	1.85965	27.3351
0.74	457.336	0.962141	0.190042	1.65621	25.7966
0.75	457.58	1.10223	0.182654	1.44649	24.108
0.76	457.844	1.28641	0.175985	1.2401	22.322
0.77	458.136	1.52591	0.170064	1.04612	20.502
0.78	458.467	1.83246	0.164936	0.87175	18.7155
0.79	458.848	2.21579	0.160633	0.721536	17.0268
0.8	459.277	2.67946	0.156874	0.597236	15.4909
0.81	459.574	3.21452	0.149601	0.498147	14.1476
0.82	457.329	3.78323	0.0909809	0.421195	13.0091
0.83	435.59	4.21496	-0.337048	0.360084	12.0284
0.84	358.249	4.10982	-1.88735	0.303725	11.047
0.85	226.456	3.31251	-5.19646	0.238202	9.78312
0.86	99.9724	2.27954	-10.1801	0.152809	7.83574
0.87	26.3783	1.51196	-15.4769	0.0607891	4.94217
0.88	2.86006	1.13292	-18.7263	0.00879617	1.87997
0.89	0.0729824	1.01774	-19.5376	0.000249861	0.316851
0.9	0.0101681	1.00088	-19.5966	3.53977e-05	0.119259
0.91	0.0100003	1.00001	-19.5974	3.48439e-05	0.118323
0.92	0.01	1	-19.5974	3.48432e-05	0.118322
0.93	0.01	1	-19.5974	3.48432e-05	0.118322
0.94	0.01	1	-19.5974	3.48432e-05	0.118322
0.95	0.01	1	-19.5974	3.48432e-05	0.118322
0.96	0.01	1	-19.5974	3.48432e-05	0.118322
0.97	0.01	1	-19.5974	3.48432e-05	0.118322
0.98	0.01	1	-19.5974	3.48432e-05	0.118322
