Domain Length	Pressure	Density	Velocity	Temperature	Sound Speed
0	460.894	5.99924	19.5975	0.267684	10.3709
0.01	460.894	5.99924	19.5975	0.267684	10.3709
0.02	460.894	5.99924	19.5975	0.267684	10.3709
0.03	460.894	5.99924	19.5975	0.267684	10.3709
0.04	460.894	5.99924	19.5975	0.267684	10.3709
0.05	460.894	5.99924	19.5975	0.267684	10.3709
0.06	460.894	5.99924	19.5975	0.267684	10.3709
0.07	460.894	5.99924	19.5975	0.267684	10.3709
0.08	460.894	5.99924	19.5975	0.267684	10.3709
0.09	460.894	5.99924	19.5975	0.267684	10.3709
0.1	460.894	5.99924	19.5975	0.267684	10.3709
0.11	460.894	5.99924	19.5975	0.267684	10.3709
0.12	460.894	5.99924	19.5975	0.267684	10.3709
0.13	460.894	5.99924	19.5975	0.267684	10.3709
0.14	460.894	5.99924	19.5975	0.267684	10.3709
0.15	460.894	5.99924	19.5975	0.267684	10.3709
0.16	460.894	5.99924	19.5975	0.267684	10.3709
0.17	460.895	5.99924	19.5975	0.267684	10.3709
0.18	460.895	5.99925	19.5975	0.267684	10.3709
0.19	460.896	5.99926	19.5975	0.267685	10.3709
0.2	460.898	5.99927	19.5974	0.267685	10.3709
0.21	460.901	5.9993	19.5974	0.267685	10.3709
0.22	460.906	5.99936	19.5973	0.267686	10.3709
0.23	460.917	5.99946	19.5971	0.267688	10.371
0.24	460.937	5.99964	19.5968	0.267691	10.371
0.25	460.973	5.99997	19.5962	0.267697	10.3712
0.26	461.038	6.00058	19.5952	0.267708	10.3714
0.27	461.157	6.00169	19.5933	0.267728	10.3717
0.28	461.374	6.0037	19.5898	0.267764	10.3724
0.29	461.765	6.00733	19.5835	0.267829	10.3737
0.3	462.473	6.01389	19.5721	0.267947	10.376
0.31	463.748	6.02566	19.5517	0.268161	10.3801
0.32	466.035	6.04667	19.5152	0.268547	10.3876
0.33	470.117	6.08388	19.4503	0.269242	10.401
0.34	477.344	6.14889	19.3365	0.270491	10.4251
0.35	489.975	6.26027	19.1405	0.272709	10.4678
0.36	511.605	6.44552	18.8138	0.276563	10.5415
0.37	547.463	6.74085	18.2952	0.282982	10.6631
0.38	604.084	7.18549	17.529	0.292927	10.8489
0.39	687.579	7.80805	16.4985	0.30683	11.1034
0.4	800.307	8.60747	15.2578	0.323966	11.4092
0.41	937.466	9.53865	13.9293	0.342442	11.73
0.42	1086.6	10.5164	12.6581	0.360013	12.0272
0.43	1231.48	11.4418	11.5581	0.375017	12.2753
0.44	1358.24	12.2364	10.6839	0.38676	12.466
0.45	1459.54	12.8635	10.0352	0.395345	12.6036
0.46	1534.79	13.3261	9.57861	0.401295	12.698
0.47	1587.65	13.6511	9.2695	0.405234	12.7602
0.48	1623.34	13.873	9.0659	0.407715	12.7992
0.49	1646.79	14.024	8.93423	0.409153	12.8218
0.5	1661.93	14.1298	8.85005	0.409823	12.8323
0.51	1671.61	14.2097	8.79657	0.409891	12.8333
0.52	1677.76	14.278	8.76264	0.40943	12.8261
0.53	1681.66	14.3455	8.74106	0.408452	12.8108
0.54	1684.16	14.4209	8.72723	0.406921	12.7867
0.55	1685.77	14.5114	8.71825	0.404768	12.7529
0.56	1686.82	14.624	8.71229	0.401904	12.7077
0.57	1687.53	14.765	8.70823	0.398231	12.6495
0.58	1688.01	14.9412	8.70536	0.393649	12.5765
0.59	1688.36	15.159	8.70325	0.388072	12.4871
0.6	1688.61	15.4249	8.70162	0.381439	12.3799
0.61	1688.8	15.7453	8.7003	0.373719	12.254
0.62	1688.95	16.126	8.69919	0.364929	12.109
0.63	1689.08	16.572	8.69823	0.355133	11.9454
0.64	1689.18	17.0873	8.69736	0.344445	11.7643
0.65	1689.27	17.6741	8.69656	0.333026	11.5676
0.66	1689.34	18.3327	8.69582	0.321077	11.3582
0.67	1689.41	19.0609	8.69511	0.308823	11.1393
0.68	1689.46	19.8537	8.69444	0.296501	10.9148
0.69	1689.51	20.703	8.69379	0.284344	10.6888
0.7	1689.55	21.5979	8.69315	0.272569	10.4651
0.71	1689.58	22.5243	8.69253	0.261363	10.2477
0.72	1689.6	23.466	8.69192	0.250878	10.0401
0.73	1689.61	24.405	8.6913	0.241226	9.84503
0.74	1689.59	25.3228	8.69062	0.232482	9.66494
0.75	1689.51	26.2008	8.68974	0.224681	9.5014
0.76	1689.24	27.0213	8.68813	0.217823	9.35528
0.77	1688.32	27.7652	8.68407	0.211872	9.2266
0.78	1685.29	28.4044	8.67195	0.206732	9.11399
0.79	1675.48	28.8747	8.63404	0.202181	9.01313
0.8	1644.5	28.9902	8.5154	0.197652	8.9116
0.81	1550.59	28.2036	8.14618	0.191562	8.77324
0.82	1286.78	25.036	6.99698	0.179085	8.48271
0.83	721.027	17.1178	3.66315	0.146765	7.67919
0.84	208.558	9.35353	-2.15045	0.0776909	5.58714
0.85	59.0198	6.51768	-5.65486	0.0315517	3.56054
0.86	46.7262	6.03739	-6.16448	0.0269668	3.2917
0.87	46.1252	5.99501	-6.19479	0.0268081	3.282
0.88	46.0964	5.99255	-6.19626	0.0268024	3.28165
0.89	46.0951	5.99243	-6.19633	0.0268022	3.28163
0.9	46.095	5.99242	-6.19633	0.0268022	3.28163
0.91	46.095	5.99242	-6.19633	0.0268022	3.28163
0.92	46.095	5.99242	-6.19633	0.0268022	3.28163
0.93	46.095	5.99242	-6.19633	0.0268022	3.28163
0.94	46.095	5.99242	-6.19633	0.0268022	3.28163
0.95	46.095	5.99242	-6.19633	0.0268022	3.28163
0.96	46.095	5.99242	-6.19633	0.0268022	3.28163
0.97	46.095	5.99242	-6.19633	0.0268022	3.28163
0.98	46.095	5.99242	-6.19633	0.0268022	3.28163
