Domain Length	Pressure	Density	Velocity	Temperature	Sound Speed
0	1	1	0.75	0.00348432	1.18322
0.01	1	1	0.75	0.00348432	1.18322
0.02	1	1	0.75	0.00348432	1.18322
0.03	1	1	0.75	0.00348432	1.18322
0.04	1	1	0.75	0.00348432	1.18322
0.05	1	1	0.75	0.00348432	1.18322
0.06	0.999999	0.999999	0.750001	0.00348432	1.18322
0.07	0.999997	0.999998	0.750003	0.00348432	1.18322
0.08	0.999991	0.999993	0.750008	0.00348431	1.18321
0.09	0.999972	0.99998	0.750024	0.00348429	1.18321
0.1	0.999923	0.999945	0.750065	0.00348424	1.1832
0.11	0.999798	0.999856	0.75017	0.00348412	1.18318
0.12	0.999508	0.999649	0.750416	0.00348383	1.18313
0.13	0.998878	0.999198	0.750949	0.0034832	1.18303
0.14	0.997612	0.998293	0.752021	0.00348194	1.18281
0.15	0.995259	0.99661	0.754016	0.0034796	1.18241
0.16	0.991225	0.993721	0.757446	0.00347557	1.18173
0.17	0.984833	0.989135	0.762905	0.00346917	1.18064
0.18	0.97545	0.982384	0.770975	0.00345973	1.17903
0.19	0.962615	0.973117	0.78212	0.00344672	1.17681
0.2	0.946141	0.961166	0.796613	0.00342985	1.17393
0.21	0.926127	0.946563	0.814512	0.0034091	1.17037
0.22	0.902912	0.929508	0.835691	0.00338462	1.16617
0.23	0.876989	0.910313	0.859896	0.00335677	1.16136
0.24	0.84891	0.889339	0.886814	0.00332593	1.15601
0.25	0.819223	0.866948	0.916116	0.00329251	1.15019
0.26	0.788415	0.84347	0.947502	0.00325689	1.14395
0.27	0.756885	0.819176	0.980732	0.00321937	1.13734
0.28	0.724895	0.794238	1.01568	0.00318011	1.13038
0.29	0.692421	0.768608	1.05255	0.00313894	1.12304
0.3	0.658349	0.741353	1.09286	0.00309421	1.11501
0.31	0.607796	0.700185	1.1561	0.00302457	1.10239
0.32	0.57393	0.672035	1.20105	0.00297568	1.09345
0.33	0.548489	0.650561	1.23633	0.00293764	1.08644
0.34	0.527365	0.632504	1.26671	0.00290513	1.08041
0.35	0.509712	0.617248	1.29291	0.00287728	1.07522
0.36	0.495312	0.604686	1.31486	0.00285409	1.07088
0.37	0.4841	0.594822	1.33234	0.00283574	1.06743
0.38	0.475947	0.587597	1.34527	0.00282226	1.06489
0.39	0.470543	0.582769	1.35394	0.00281333	1.0632
0.4	0.467372	0.579898	1.35908	0.00280821	1.06223
0.41	0.465793	0.57842	1.36164	0.00280587	1.06179
0.42	0.46519	0.577778	1.36262	0.00280535	1.06169
0.43	0.465086	0.577522	1.36279	0.00280597	1.06181
0.44	0.465186	0.577337	1.36263	0.00280747	1.06209
0.45	0.465339	0.576996	1.36238	0.00281006	1.06258
0.46	0.465485	0.576283	1.36214	0.00281442	1.06341
0.47	0.465608	0.574933	1.36193	0.00282177	1.06479
0.48	0.465707	0.572586	1.36177	0.00283394	1.06709
0.49	0.465788	0.568783	1.36164	0.00285338	1.07074
0.5	0.465853	0.562988	1.36153	0.00288316	1.07631
0.51	0.465908	0.554668	1.36144	0.00292674	1.08442
0.52	0.465953	0.543395	1.36136	0.00298775	1.09566
0.53	0.465991	0.528964	1.36129	0.00306951	1.11055
0.54	0.466023	0.511503	1.36124	0.00317451	1.12939
0.55	0.466049	0.491515	1.36119	0.00330379	1.15216
0.56	0.466072	0.469859	1.36114	0.00345624	1.17844
0.57	0.466091	0.447633	1.36111	0.00362799	1.20736
0.58	0.466107	0.42602	1.36107	0.00381217	1.23763
0.59	0.46612	0.406098	1.36104	0.00399931	1.26764
0.6	0.466132	0.38869	1.36102	0.00417853	1.29574
0.61	0.466142	0.374269	1.361	0.00433963	1.32048
0.62	0.46615	0.362949	1.36097	0.00447505	1.34092
0.63	0.466155	0.354535	1.36095	0.0045813	1.35675
0.64	0.466152	0.348619	1.36091	0.00465902	1.36821
0.65	0.466128	0.344686	1.36083	0.00471194	1.37596
0.66	0.46604	0.342198	1.36062	0.00474531	1.38082
0.67	0.465767	0.340635	1.36002	0.00476428	1.38358
0.68	0.464956	0.339451	1.35827	0.00477257	1.38478
0.69	0.462588	0.33785	1.3532	0.00477077	1.38452
0.7	0.455817	0.334171	1.33862	0.0047527	1.3819
0.71	0.437172	0.324375	1.29757	0.00469594	1.37362
0.72	0.390371	0.299646	1.18835	0.00453928	1.35051
0.73	0.296931	0.248908	0.935558	0.00415658	1.29233
0.74	0.182122	0.182245	0.507726	0.00348197	1.18282
0.75	0.117766	0.139419	0.134324	0.00294316	1.08746
0.76	0.102463	0.127166	0.0188325	0.00280745	1.06209
0.77	0.100295	0.125263	0.00223489	0.00278981	1.05875
0.78	0.100034	0.125031	0.000260029	0.00278773	1.05835
0.79	0.100004	0.125004	3.01268e-05	0.00278749	1.05831
0.8	0.1	0.125	3.47984e-06	0.00278746	1.0583
0.81	0.1	0.125	4.0053e-07	0.00278746	1.0583
0.82	0.1	0.125	4.59015e-08	0.00278746	1.0583
0.83	0.1	0.125	5.23231e-09	0.00278746	1.0583
0.84	0.1	0.125	5.92507e-10	0.00278746	1.0583
0.85	0.1	0.125	6.6555e-11	0.00278746	1.0583
0.86	0.1	0.125	7.4027e-12	0.00278746	1.0583
0.87	0.1	0.125	8.13664e-13	0.00278746	1.0583
0.88	0.1	0.125	8.82622e-14	0.00278746	1.0583
0.89	0.1	0.125	9.46967e-15	0.00278746	1.0583
0.9	0.1	0.125	9.71244e-16	0.00278746	1.0583
0.91	0.1	0.125	4.85593e-17	0.00278746	1.0583
0.92	0.1	0.125	0	0.00278746	1.0583
0.93	0.1	0.125	0	0.00278746	1.0583
0.94	0.1	0.125	0	0.00278746	1.0583
0.95	0.1	0.125	0	0.00278746	1.0583
0.96	0.1	0.125	0	0.00278746	1.0583
0.97	0.1	0.125	0	0.00278746	1.0583
0.98	0.1	0.125	0	0.00278746	1.0583
